# column 1: wavelength (micron)
# column 2: total flux; lambda*F_lambda (W/m2)
# column 3: transparent flux; lambda*F_lambda (W/m2)
# column 4: direct primary flux; lambda*F_lambda (W/m2)
# column 5: scattered primary flux; lambda*F_lambda (W/m2)
# column 6: direct secondary flux; lambda*F_lambda (W/m2)
# column 7: scattered secondary flux; lambda*F_lambda (W/m2)
1.000000000e-03 1.840065481e-17 1.844859880e-28 1.592559664e-28 1.840065481e-17 0.000000000e+00 0.000000000e+00
1.188502227e-03 8.040827327e-17 4.310469895e-28 3.567810366e-28 8.040827327e-17 0.000000000e+00 0.000000000e+00
1.412537545e-03 1.893754841e-16 5.317390804e-28 4.156091583e-28 1.893754841e-16 0.000000000e+00 0.000000000e+00
1.678804018e-03 1.167180797e-15 6.527167058e-28 4.980993907e-28 1.167180797e-15 0.000000000e+00 0.000000000e+00
1.995262315e-03 8.099893049e-16 8.038001144e-28 5.643379265e-28 8.099893049e-16 0.000000000e+00 0.000000000e+00
2.371373706e-03 1.774361982e-15 9.877943362e-28 6.706063995e-28 1.774361982e-15 0.000000000e+00 0.000000000e+00
2.818382931e-03 4.256892971e-15 1.215907238e-27 7.333430823e-28 4.256892971e-15 0.000000000e+00 0.000000000e+00
3.349654392e-03 9.882514442e-15 1.496712613e-27 7.947497862e-28 9.882514442e-15 0.000000000e+00 0.000000000e+00
3.981071706e-03 2.051252440e-14 1.839641300e-27 8.962612243e-28 2.051252440e-14 0.000000000e+00 0.000000000e+00
4.731512590e-03 7.819935646e-14 2.262584316e-27 1.316772660e-27 7.819935646e-14 0.000000000e+00 0.000000000e+00
5.623413252e-03 1.340268869e-13 2.787135698e-27 1.372932485e-27 1.340268869e-13 0.000000000e+00 0.000000000e+00
6.683439176e-03 2.837719829e-13 3.434091580e-27 1.449703919e-27 2.837719829e-13 0.000000000e+00 0.000000000e+00
7.943282347e-03 3.892176259e-13 4.215526922e-27 1.560753587e-27 3.892176259e-13 0.000000000e+00 0.000000000e+00
9.440608763e-03 1.124254340e-12 5.177280722e-27 1.679637992e-27 1.124254340e-12 0.000000000e+00 0.000000000e+00
1.122018454e-02 1.197186310e-12 5.555087424e-27 1.676855341e-27 1.197186310e-12 0.000000000e+00 0.000000000e+00
1.333521432e-02 1.697417293e-12 5.554852105e-27 1.506518661e-27 1.697417293e-12 0.000000000e+00 0.000000000e+00
1.584893192e-02 2.432170178e-12 5.555032055e-27 1.337250524e-27 2.432170178e-12 0.000000000e+00 0.000000000e+00
1.883649089e-02 3.139984827e-12 5.550849375e-27 1.196662487e-27 3.139984827e-12 0.000000000e+00 0.000000000e+00
2.238721139e-02 4.128926717e-12 5.551578403e-27 1.070890149e-27 4.128926717e-12 0.000000000e+00 0.000000000e+00
2.660725060e-02 5.033769063e-12 5.547649499e-27 9.325877008e-28 5.033769063e-12 0.000000000e+00 0.000000000e+00
3.162277660e-02 5.771695973e-12 5.557922787e-27 8.103264943e-28 5.771695973e-12 0.000000000e+00 0.000000000e+00
3.758374043e-02 6.330622256e-12 5.548512335e-27 7.313328449e-28 6.330622256e-12 0.000000000e+00 0.000000000e+00
4.466835922e-02 7.911414014e-12 5.555511921e-27 6.181154560e-28 7.911414014e-12 0.000000000e+00 0.000000000e+00
5.308844442e-02 7.984429008e-12 5.548302393e-27 4.464067212e-28 7.984429008e-12 0.000000000e+00 0.000000000e+00
6.309573445e-02 5.448354653e-12 5.552279746e-27 2.070737783e-28 5.448354653e-12 0.000000000e+00 0.000000000e+00
7.498942093e-02 2.422371003e-12 5.543605242e-27 7.969498350e-29 2.422371003e-12 0.000000000e+00 0.000000000e+00
8.912509381e-02 2.713210423e-12 5.548646144e-27 9.985504703e-29 2.713210423e-12 1.733736434e-35 4.339663235e-35
1.059253725e-01 4.591598196e-12 5.388466805e-27 1.764500527e-28 4.591598196e-12 6.963111687e-31 1.518771454e-30
1.258925412e-01 7.080808568e-12 4.953942596e-27 3.417076679e-28 7.080808568e-12 3.329700364e-27 5.819615042e-27
1.496235656e-01 8.560667367e-12 4.539206242e-27 5.347204497e-28 8.560667367e-12 4.030765765e-24 5.226119202e-24
1.778279410e-01 1.016536676e-11 4.164850681e-27 5.750404032e-28 1.016536676e-11 5.596656054e-22 8.815059570e-22
2.113489040e-01 8.429778225e-12 3.818060215e-27 3.660385556e-28 8.429778159e-12 2.300421670e-20 4.259878739e-20
2.511886432e-01 1.140792198e-11 3.504812394e-27 4.925659551e-28 1.140791711e-11 1.894499001e-18 2.976190875e-18
2.985382619e-01 1.206817070e-11 3.212864879e-27 6.727623403e-28 1.206801594e-11 6.900333719e-17 8.575946895e-17
3.548133892e-01 1.123185684e-11 2.947228697e-27 7.858369129e-28 1.122944224e-11 1.199488838e-15 1.215111609e-15
4.216965034e-01 1.021615060e-11 2.700152333e-27 8.833678832e-28 1.019287706e-11 1.287909330e-14 1.039445320e-14
5.011872336e-01 9.292364268e-12 2.477218605e-27 9.825808816e-28 9.145489822e-12 8.976849152e-14 5.710595397e-14
5.956621435e-01 8.621165967e-12 2.275950891e-27 1.070231552e-27 7.960029590e-12 4.433134651e-13 2.178229113e-13
7.079457844e-01 8.892985002e-12 2.086063093e-27 1.138396260e-27 6.670341171e-12 1.614794163e-12 6.078496681e-13
8.413951416e-01 1.125340859e-11 1.915866162e-27 1.192831704e-27 5.306557259e-12 4.671502223e-12 1.275349109e-12
1.000000000e+00 1.639332515e-11 1.824206139e-27 1.255606020e-27 4.217049390e-12 1.012966953e-11 2.046606233e-12
1.079840827e+00 2.122880756e-11 1.690865930e-27 1.234262396e-27 3.346673581e-12 1.539683919e-11 2.485294786e-12
1.166056212e+00 2.675520829e-11 1.629335490e-27 1.238191925e-27 2.803875932e-12 2.114362685e-11 2.807705511e-12
1.259155105e+00 3.375074784e-11 1.564963329e-27 1.233633972e-27 2.295717001e-12 2.840328438e-11 3.051746462e-12
1.359687090e+00 4.199449981e-11 1.511335174e-27 1.230406486e-27 1.864602324e-12 3.692999725e-11 3.199900233e-12
1.468245632e+00 5.219048799e-11 1.451803930e-27 1.216061487e-27 1.483415110e-12 4.743083754e-11 3.276235339e-12
1.585471577e+00 6.330875811e-11 1.394420589e-27 1.197717263e-27 1.159245240e-12 5.894209480e-11 3.207418068e-12
1.712056940e+00 7.532358089e-11 1.342974902e-27 1.179644074e-27 8.892338627e-13 7.142088850e-11 3.013458529e-12
1.848748982e+00 8.845650451e-11 1.293711134e-27 1.158983306e-27 6.683973094e-13 8.506154875e-11 2.726558447e-12
1.996354630e+00 1.006897820e-10 1.240554230e-27 1.130494174e-27 4.893163837e-13 9.786063979e-11 2.339825857e-12
2.155745235e+00 1.126600387e-10 1.193730411e-27 1.103660398e-27 3.534967292e-13 1.103644963e-10 1.942045676e-12
2.327861718e+00 1.239286356e-10 1.152667185e-27 1.078667014e-27 2.529698554e-13 1.221139976e-10 1.561668146e-12
2.513720123e+00 1.328610939e-10 1.110107329e-27 1.049341095e-27 1.785023450e-13 1.314707333e-10 1.211858214e-12
2.714417617e+00 1.401808171e-10 1.065847244e-27 1.015942945e-27 1.253078118e-13 1.391328698e-10 9.226394607e-13
2.931138964e+00 1.452578916e-10 1.023576433e-27 9.824479088e-28 8.787185847e-14 1.444817080e-10 6.883117814e-13
3.165163524e+00 1.469833293e-10 9.857825183e-28 9.516460540e-28 6.174187451e-14 1.464200686e-10 5.015188079e-13
3.417872798e+00 1.463653993e-10 9.508426025e-28 9.223214533e-28 4.342149965e-14 1.459619636e-10 3.600142594e-13
3.690758589e+00 1.432628970e-10 9.168449109e-28 8.929621532e-28 3.048822996e-14 1.429791433e-10 2.532655068e-13
3.985431808e+00 1.374972982e-10 8.802858014e-28 8.602861079e-28 2.132635362e-14 1.373009667e-10 1.750051613e-13
4.303631980e+00 1.293898494e-10 8.480874191e-28 8.312199858e-28 1.497212562e-14 1.292561623e-10 1.187149267e-13
4.647237517e+00 1.200974552e-10 8.157221689e-28 8.014586871e-28 1.048682696e-14 1.200076666e-10 7.930181297e-14
5.018276805e+00 1.098183938e-10 7.641264053e-28 7.522918244e-28 7.165201662e-15 1.097590613e-10 5.216727739e-14
5.418940176e+00 9.928720860e-11 6.185880198e-28 6.100322192e-28 4.224821128e-15 9.924923132e-11 3.375245319e-14
5.851592842e+00 8.910563906e-11 4.913236561e-28 4.851870723e-28 2.434591531e-15 8.908173871e-11 2.146575820e-14
6.318788855e+00 7.946016844e-11 3.905461425e-28 3.861027982e-28 1.399581069e-15 7.944549125e-11 1.327760931e-14
6.823286184e+00 7.032118344e-11 3.104405639e-28 3.071946348e-28 7.996292404e-16 7.031282577e-11 7.558045176e-15
7.368062997e+00 6.709917723e-11 2.461264740e-28 2.435540811e-28 2.001601727e-16 6.709541119e-11 3.565874307e-15
7.956335242e+00 9.568144583e-11 1.954028905e-28 1.921981346e-28 0.000000000e+00 9.568020086e-11 1.244973626e-15
8.591575629e+00 1.614293961e-10 1.552062168e-28 1.503267353e-28 0.000000000e+00 1.614291395e-10 2.565760182e-16
9.277534134e+00 2.116275113e-10 1.233100487e-28 1.175618746e-28 0.000000000e+00 2.116274905e-10 2.083678505e-17
1.001826013e+01 1.867783391e-10 9.801804626e-29 9.355284263e-29 0.000000000e+00 1.867783391e-10 2.086070663e-21
1.081812631e+01 1.298253245e-10 7.762454465e-29 7.488778132e-29 0.000000000e+00 1.298253245e-10 0.000000000e+00
1.168185446e+01 8.364766854e-11 6.180946553e-29 6.023603634e-29 0.000000000e+00 8.364766854e-11 0.000000000e+00
1.261454339e+01 5.341910688e-11 4.883805889e-29 4.794246382e-29 0.000000000e+00 5.341910688e-11 0.000000000e+00
1.362169896e+01 3.539773192e-11 3.904854889e-29 3.851083278e-29 0.000000000e+00 3.539773192e-11 0.000000000e+00
1.470926668e+01 2.921685128e-11 3.101437621e-29 3.060662989e-29 0.000000000e+00 2.921685128e-11 0.000000000e+00
1.588366670e+01 2.921659511e-11 2.460036178e-29 2.422124474e-29 0.000000000e+00 2.921659511e-11 0.000000000e+00
1.715183178e+01 2.896688185e-11 1.943809783e-29 1.908767400e-29 0.000000000e+00 2.896688185e-11 0.000000000e+00
1.852124822e+01 2.586935514e-11 1.547794269e-29 1.518494681e-29 0.000000000e+00 2.586935514e-11 0.000000000e+00
2.000000000e+01 1.924661135e-11 1.191449492e-29 1.171105974e-29 0.000000000e+00 1.924661135e-11 0.000000000e+00
2.238721139e+01 1.212717815e-11 8.351068813e-30 8.234081010e-30 0.000000000e+00 1.212717815e-11 0.000000000e+00
2.660725060e+01 6.816127793e-12 5.267588922e-30 5.209017097e-30 0.000000000e+00 6.816127793e-12 0.000000000e+00
3.162277660e+01 3.569035796e-12 3.138942947e-30 3.111303815e-30 0.000000000e+00 3.569035796e-12 0.000000000e+00
3.758374043e+01 1.822805179e-12 1.868129421e-30 1.855179094e-30 0.000000000e+00 1.822805179e-12 0.000000000e+00
4.466835922e+01 8.756136328e-13 1.113678695e-30 1.107856521e-30 0.000000000e+00 8.756136328e-13 0.000000000e+00
5.308844442e+01 3.987777212e-13 6.636771678e-31 6.611685375e-31 0.000000000e+00 3.987777212e-13 0.000000000e+00
6.309573445e+01 1.756751015e-13 3.946084183e-31 3.935566385e-31 0.000000000e+00 1.756751015e-13 0.000000000e+00
7.498942093e+01 7.558584072e-14 2.355734041e-31 2.351357020e-31 0.000000000e+00 7.558584072e-14 0.000000000e+00
8.912509381e+01 3.232186389e-14 1.403296430e-31 1.401482644e-31 0.000000000e+00 3.232186389e-14 0.000000000e+00
1.059253725e+02 1.379871200e-14 8.346489754e-32 8.338952497e-32 0.000000000e+00 1.379871200e-14 0.000000000e+00
1.258925412e+02 5.973972412e-15 4.974930284e-32 4.971736740e-32 0.000000000e+00 5.973972412e-15 0.000000000e+00
1.496235656e+02 2.579178865e-15 2.962512063e-32 2.961155116e-32 0.000000000e+00 2.579178865e-15 0.000000000e+00
1.778279410e+02 1.078573021e-15 1.761830265e-32 1.761272064e-32 0.000000000e+00 1.078573021e-15 0.000000000e+00
2.113489040e+02 4.561864771e-16 1.049569066e-32 1.049336152e-32 0.000000000e+00 4.561864771e-16 0.000000000e+00
2.511886432e+02 1.932563628e-16 6.258018633e-33 6.257039555e-33 0.000000000e+00 1.932563628e-16 0.000000000e+00
2.985382619e+02 8.220430999e-17 3.728780508e-33 3.728368501e-33 0.000000000e+00 8.220430999e-17 0.000000000e+00
3.548133892e+02 3.497124568e-17 2.219023976e-33 2.218850275e-33 0.000000000e+00 3.497124568e-17 0.000000000e+00
4.216965034e+02 1.488047830e-17 1.323598323e-33 1.323524881e-33 0.000000000e+00 1.488047830e-17 0.000000000e+00
5.011872336e+02 6.311509631e-18 7.876456807e-34 7.876146865e-34 0.000000000e+00 6.311509631e-18 0.000000000e+00
5.956621435e+02 2.676730949e-18 4.687101513e-34 4.686970575e-34 0.000000000e+00 2.676730949e-18 0.000000000e+00
7.079457844e+02 1.134847791e-18 2.798655092e-34 2.798599594e-34 0.000000000e+00 1.134847791e-18 0.000000000e+00
8.413951416e+02 4.827202000e-19 1.666463497e-34 1.666440030e-34 0.000000000e+00 4.827202000e-19 0.000000000e+00
1.000000000e+03 1.857341873e-19 5.586316616e-35 5.586256644e-35 0.000000000e+00 1.857341873e-19 0.000000000e+00
